# AFGL atmospheric constituent profile. subarctic summer. ( AFGL-TR-86-0110)       
#     z(km)      p(mb)        T(K)    air(cm-3)    o3(cm-3)     o2(cm-3)    h2o(cm-3)    co2(cm-3)     no2(cm-3)
    120.000     0.00002     380.000 4.307612E+11 2.155500E+02 3.125475E+10 8.622001E+04 1.508850E+07 6.509610E+01
    115.000     0.00004     322.700 7.945406E+11 3.975500E+03 7.473940E+10 1.908240E+05 3.180400E+07 1.232405E+02
    110.000     0.00006     270.100 1.608935E+12 8.050000E+04 1.932000E+11 4.508000E+05 9.660000E+07 2.559900E+02
    105.000     0.00011     226.000 3.621444E+12 7.248001E+05 5.073600E+11 1.232160E+06 3.986400E+08 5.943360E+02
    100.000     0.00025     190.400 9.434015E+12 3.776400E+06 1.510560E+12 3.776400E+06 1.840995E+09 1.604970E+03
     95.000     0.00061     176.800 2.482574E+13 1.987200E+07 4.471200E+12 1.341360E+07 6.706800E+09 4.371840E+03
     90.000     0.00161     161.600 7.215997E+13 6.498900E+07 1.371990E+13 6.137850E+07 2.238510E+10 1.321443E+04
     85.000     0.00451     161.700 2.020125E+14 1.314300E+08 4.044000E+13 2.689260E+08 6.470400E+10 3.882240E+04
     80.000     0.01250     170.600 5.306923E+14 9.559800E+07 1.109999E+14 1.062200E+09 1.742008E+11 1.072822E+05
     75.000     0.03200     193.600 1.197172E+15 2.396000E+08 2.503820E+14 3.234600E+09 3.953400E+11 2.575700E+05
     70.000     0.07100     216.600 2.374169E+15 9.504000E+08 4.965840E+14 7.840800E+09 7.840800E+11 5.488560E+05
     65.000     0.14700     239.700 4.441822E+15 3.556000E+09 9.290050E+14 1.778000E+10 1.466850E+12 1.124585E+06
     60.000     0.28800     262.700 7.940434E+15 9.535200E+09 1.660714E+15 3.575700E+10 2.622180E+12 2.264610E+06
     55.000     0.53700     274.000 1.419501E+16 2.415700E+10 2.969890E+15 6.891850E+10 4.689300E+12 4.817190E+06
     50.000     0.98700     277.200 2.578907E+16 6.452500E+10 5.394290E+15 1.277595E+11 8.517300E+12 1.143383E+07
     47.500     1.34000     276.200 3.513929E+16 1.125120E+11 7.348440E+15 1.758000E+11 1.160280E+13 2.341656E+07
     45.000     1.82000     273.600 4.818004E+16 2.024820E+11 1.007589E+16 2.410500E+11 1.590930E+13 5.544150E+07
     42.500     2.48000     269.500 6.665071E+16 3.601800E+11 1.394030E+16 3.335000E+11 2.201100E+13 1.447390E+08
     40.000     3.40000     262.100 9.395583E+16 6.581400E+11 1.965018E+16 4.701000E+11 3.102660E+13 3.789006E+08
     37.500     4.72000     254.600 1.342751E+17 1.048320E+12 2.808960E+16 6.720000E+11 4.435200E+13 8.413440E+08
     35.000     6.61000     247.200 1.936711E+17 1.492260E+12 4.050420E+16 9.690000E+11 6.395400E+13 1.410864E+09
     32.500     9.40000     240.000 2.836798E+17 1.958910E+12 5.933510E+16 1.419500E+12 9.368700E+13 2.046919E+09
     30.000    13.40000     235.100 4.128230E+17 2.354670E+12 8.633790E+16 2.065500E+12 1.363230E+14 2.544696E+09
     27.500    19.23000     231.000 6.029470E+17 3.198020E+12 1.261106E+17 2.986830E+12 1.991220E+14 2.902354E+09
     25.000    27.80000     228.100 8.827370E+17 3.975300E+12 1.846306E+17 4.328660E+12 2.915220E+14 3.303916E+09
     24.000    32.28000     226.600 1.031776E+18 4.338600E+12 2.158970E+17 5.010049E+12 3.408900E+14 3.160980E+09
     23.000    37.50000     225.200 1.206076E+18 4.465900E+12 2.522630E+17 5.829810E+12 3.983100E+14 3.114060E+09
     22.000    43.60000     225.200 1.402264E+18 4.629900E+12 2.932270E+17 6.734400E+12 4.629900E+14 3.030480E+09
     21.000    50.70000     225.200 1.630615E+18 4.406400E+12 3.410880E+17 7.670400E+12 5.385600E+14 2.872320E+09
     20.000    59.00000     225.200 1.897560E+18 3.987900E+12 3.968910E+17 8.735400E+12 6.266700E+14 2.639610E+09
     19.000    68.60000     225.200 2.206315E+18 3.753600E+12 4.614720E+17 9.936000E+12 7.286400E+14 2.340480E+09
     18.000    79.80000     225.200 2.566530E+18 3.338400E+12 5.367120E+17 1.104240E+13 8.474400E+14 1.979928E+09
     17.000    92.80000     225.200 2.984637E+18 2.987000E+12 6.242830E+17 1.209735E+13 9.857100E+14 1.550253E+09
     16.000   108.00000     225.200 3.473499E+18 2.954600E+12 7.264840E+17 1.390400E+13 1.147080E+15 1.108844E+09
     15.000   126.00000     225.200 4.052416E+18 2.838500E+12 8.474950E+17 1.622000E+13 1.338150E+15 6.934050E+08
     14.000   146.00000     225.200 4.695657E+18 2.819400E+12 9.820909E+17 1.879600E+13 1.550670E+15 3.514852E+08
     13.000   170.00000     225.200 5.467545E+18 2.735500E+12 1.143439E+18 2.434595E+13 1.805430E+15 2.434595E+08
     12.000   197.70000     225.200 6.358433E+18 2.608830E+12 1.329867E+18 3.817800E+13 2.099790E+15 2.004345E+08
     11.000   230.00000     225.200 7.397267E+18 2.257610E+12 1.547018E+18 9.844661E+13 2.442660E+15 1.939324E+08
     10.000   267.70001     225.200 8.609776E+18 1.628424E+12 1.800744E+18 3.653184E+14 2.843280E+15 2.050608E+08
      9.000   310.79999     232.200 9.694616E+18 1.377542E+12 2.027509E+18 1.261130E+15 3.201330E+15 2.250632E+08
      8.000   359.00000     239.200 1.087039E+19 9.916032E+11 2.273920E+18 4.347648E+15 3.590400E+15 2.502400E+08
      7.000   413.00000     246.100 1.215487E+19 9.409409E+11 2.541440E+18 9.692736E+15 4.012800E+15 2.796800E+08
      6.000   474.00000     253.100 1.356432E+19 8.907348E+11 2.836130E+18 1.804810E+16 4.478100E+15 3.121100E+08
      5.000   541.00000     260.100 1.506498E+19 8.034624E+11 3.151720E+18 3.344744E+16 4.976400E+15 3.468400E+08
      4.000   616.00000     265.500 1.680459E+19 7.531996E+11 3.515380E+18 5.685160E+16 5.550600E+15 3.868600E+08
      3.000   700.00000     270.900 1.871548E+19 7.280351E+11 3.914570E+18 9.027860E+16 6.180900E+15 4.307900E+08
      2.000   792.90002     276.300 2.078497E+19 7.028321E+11 4.347200E+18 1.404000E+17 6.864000E+15 4.784000E+08
      1.000   896.00000     281.700 2.303737E+19 6.776700E+11 4.817450E+18 2.005581E+17 7.606500E+15 5.301500E+08
      0.000  1010.00000     287.200 2.547116E+19 6.148188E+11 5.327410E+18 3.043506E+17 8.411700E+15 5.862700E+08
