# AFGL atmospheric constituent profile. midlatitude summer. ( AFGL-TR-86-0110)       
#     z(km)      p(mb)        T(K)    air(cm-3)    o3(cm-3)     o2(cm-3)    h2o(cm-3)    co2(cm-3)     no2(cm-3)
    120.000     0.00002     380.000 4.326673E+11 2.165000E+02 3.139250E+10 8.660000E+04 1.515500E+07 6.538300E+01
    115.000     0.00004     316.800 8.139105E+11 4.072500E+03 7.656301E+10 1.954800E+05 3.258000E+07 1.262475E+02
    110.000     0.00006     262.400 1.686511E+12 8.440001E+04 2.025600E+11 4.726400E+05 1.012800E+08 2.683920E+02
    105.000     0.00012     222.200 3.813762E+12 7.632000E+05 5.342400E+11 1.297440E+06 4.197600E+08 6.258240E+02
    100.000     0.00026     190.500 9.809267E+12 3.926400E+06 1.570560E+12 3.926400E+06 1.914120E+09 1.668720E+03
     95.000     0.00062     178.300 2.538870E+13 1.778700E+07 4.573800E+12 1.372140E+07 6.860700E+09 4.472160E+03
     90.000     0.00164     165.000 7.198993E+13 5.403000E+07 1.368760E+13 6.123400E+07 2.233240E+10 1.318332E+04
     85.000     0.00448     165.100 1.965363E+14 1.121190E+08 3.934000E+13 2.616110E+08 6.294400E+10 3.776640E+04
     80.000     0.01200     174.100 4.992227E+14 9.992000E+07 1.044164E+14 1.049160E+09 1.638688E+11 1.009192E+05
     75.000     0.03000     196.100 1.108040E+15 2.107100E+08 2.317810E+14 3.271550E+09 3.659700E+11 2.384350E+05
     70.000     0.06700     218.100 2.225005E+15 8.908001E+08 4.654430E+14 8.239900E+09 7.349100E+11 5.144370E+05
     65.000     0.13900     240.100 4.193093E+15 3.356800E+09 8.769640E+14 1.846240E+10 1.384680E+12 1.061588E+06
     60.000     0.27200     257.100 7.662644E+15 9.968400E+09 1.602612E+15 3.834000E+10 2.530440E+12 2.185380E+06
     55.000     0.51500     269.300 1.385105E+16 2.494800E+10 2.896740E+15 7.415099E+10 4.573800E+12 4.698540E+06
     50.000     0.95100     275.700 2.498363E+16 7.000000E+10 5.225000E+15 1.375000E+11 8.250000E+12 1.107500E+07
     47.500     1.29000     275.200 3.395104E+16 1.189300E+11 7.101820E+15 1.868900E+11 1.121340E+13 2.263068E+07
     45.000     1.76000     269.900 4.723040E+16 2.126700E+11 9.877339E+15 2.575670E+11 1.559580E+13 5.434900E+07
     42.500     2.41000     263.700 6.619401E+16 3.908160E+11 1.384416E+16 3.510720E+11 2.185920E+13 1.437408E+08
     40.000     3.33000     257.500 9.366532E+16 7.076615E+11 1.958957E+16 4.780230E+11 3.093090E+13 3.777319E+08
     37.500     4.64000     251.300 1.337326E+17 1.164060E+12 2.796420E+16 6.690000E+11 4.415400E+13 8.375880E+08
     35.000     6.52000     245.200 1.925923E+17 1.715030E+12 4.027430E+16 9.538649E+11 6.359100E+13 1.402856E+09
     32.500     9.30000     239.000 2.818363E+17 2.284200E+12 5.893800E+16 1.367700E+12 9.306000E+13 2.033220E+09
     30.000    13.20000     233.700 4.090977E+17 2.865800E+12 8.556460E+16 1.924180E+12 1.351020E+14 2.521904E+09
     27.500    19.07000     228.450 6.046045E+17 3.630000E+12 1.264450E+17 2.692250E+12 1.996500E+14 2.910050E+09
     25.000    27.70000     225.100 8.912839E+17 4.281120E+12 1.864071E+17 3.745980E+12 2.943270E+14 3.335706E+09
     24.000    32.20000     223.900 1.041630E+18 4.168000E+12 2.177780E+17 4.168000E+12 3.438600E+14 3.188520E+09
     23.000    37.60000     222.800 1.222319E+18 4.158200E+12 2.556070E+17 4.708550E+12 4.035900E+14 3.155340E+09
     22.000    43.70000     221.600 1.428313E+18 4.144100E+12 2.986610E+17 5.144399E+12 4.715700E+14 3.086640E+09
     21.000    51.00000     220.400 1.675986E+18 4.024800E+12 3.504930E+17 5.785650E+12 5.534100E+14 2.951520E+09
     20.000    59.50000     219.200 1.966021E+18 3.934000E+12 4.111030E+17 6.491100E+12 6.491100E+14 2.734130E+09
     19.000    69.50000     217.900 2.310146E+18 3.468000E+12 4.832080E+17 7.398400E+12 7.629600E+14 2.450720E+09
     18.000    81.20000     216.800 2.712742E+18 2.715000E+12 5.674350E+17 8.552250E+12 8.959500E+14 2.093265E+09
     17.000    95.00000     215.700 3.189961E+18 2.234400E+12 6.671280E+17 1.021440E+13 1.053360E+15 1.656648E+09
     16.000   111.00000     215.700 3.727217E+18 2.238000E+12 7.795700E+17 1.230900E+13 1.230900E+15 1.189870E+09
     15.000   130.00000     215.700 4.365209E+18 2.184000E+12 9.129120E+17 1.485120E+13 1.441440E+15 7.469280E+08
     14.000   153.00000     215.700 5.137515E+18 2.262040E+12 1.074469E+18 2.570500E+13 1.696530E+15 3.845468E+08
     13.000   179.00000     215.800 6.007772E+18 1.803600E+12 1.256508E+18 4.809600E+13 1.983960E+15 2.675340E+08
     12.000   209.00000     222.300 6.809554E+18 1.519522E+12 1.424126E+18 2.006042E+14 2.248620E+15 2.146410E+08
     11.000   243.00000     228.800 7.692404E+18 1.380251E+12 1.608882E+18 7.356209E+14 2.540340E+15 2.016876E+08
     10.000   281.00000     235.300 8.649604E+18 1.128742E+12 1.809104E+18 2.139763E+15 2.856480E+15 2.060128E+08
      9.000   324.00000     241.700 9.709126E+18 1.079448E+12 2.030644E+18 4.011736E+15 3.206280E+15 2.254112E+08
      8.000   372.00000     248.200 1.085558E+19 9.910836E+11 2.269740E+18 7.019904E+15 3.583800E+15 2.497800E+08
      7.000   426.00000     254.700 1.211414E+19 9.409968E+11 2.533080E+18 1.236240E+16 3.999600E+15 2.787600E+08
      6.000   487.00000     261.200 1.350416E+19 8.657207E+11 2.823590E+18 2.040010E+16 4.458300E+15 3.107300E+08
      5.000   554.00000     267.200 1.501707E+19 8.284536E+11 3.141270E+18 3.344175E+16 4.959900E+15 3.456900E+08
      4.000   628.00000     273.200 1.664910E+19 8.031786E+11 3.481940E+18 6.352458E+16 5.497800E+15 3.831800E+08
      3.000   710.00000     279.200 1.841852E+19 7.781146E+11 3.851870E+18 1.102851E+17 6.081900E+15 4.238900E+08
      2.000   802.00000     285.200 2.036745E+19 7.528372E+11 4.259420E+18 1.972784E+17 6.725400E+15 4.687400E+08
      1.000   902.00000     289.700 2.255121E+19 7.531609E+11 4.717130E+18 3.110146E+17 7.448100E+15 5.191100E+08
      0.000  1013.00000     294.200 2.493898E+19 7.530432E+11 5.216640E+18 4.682496E+17 8.236800E+15 5.740800E+08
